Watching PID 17853 page references during 1.00 * 20 seconds...
Est(s)     Ref(KB)
1.036       424.00
2.089       544.00
3.124       848.00
4.157      1076.00
5.189      1188.00
6.221      1332.00
7.270      1456.00
8.318      1600.00
9.353      1716.00
10.389     1832.00
11.436     1956.00
12.483     2068.00
13.515     2180.00
14.562     2292.00
15.609     2404.00
16.641     2512.00
17.689     2724.00
18.754     2844.00
19.816     2956.00
20.865     3068.00